# Wavelength(μm) Extinction_cofficient
0.36	0.606
0.362	0.632
0.363	0.66
0.365	0.688
0.366	0.719
0.368	0.751
0.37	0.784
0.371	0.819
0.373	0.856
0.374	0.894
0.376	0.934
0.378	0.976
0.379	1.019
0.381	1.063
0.382	1.108
0.384	1.155
0.386	1.203
0.387	1.251
0.389	1.299
0.39	1.347
0.392	1.395
0.394	1.442
0.395	1.488
0.397	1.532
0.398	1.574
0.4	1.613
0.402	1.648
0.403	1.68
0.405	1.707
0.406	1.73
0.408	1.747
0.41	1.758
0.411	1.764
0.413	1.764
0.414	1.759
0.416	1.748
0.418	1.732
0.419	1.713
0.421	1.689
0.422	1.663
0.424	1.635
0.426	1.607
0.427	1.578
0.429	1.551
0.43	1.526
0.432	1.503
0.434	1.484
0.435	1.469
0.437	1.459
0.438	1.453
0.44	1.453
0.442	1.457
0.443	1.466
0.445	1.479
0.446	1.494
0.448	1.51
0.45	1.526
0.451	1.539
0.453	1.546
0.454	1.545
0.456	1.535
0.458	1.513
0.459	1.48
0.461	1.436
0.462	1.382
0.464	1.321
0.466	1.254
0.467	1.186
0.469	1.117
0.47	1.05
0.472	0.986
0.474	0.926
0.475	0.871
0.477	0.821
0.478	0.775
0.48	0.735
0.482	0.699
0.483	0.667
0.485	0.64
0.486	0.616
0.488	0.595
0.49	0.578
0.491	0.563
0.493	0.552
0.494	0.542
0.496	0.535
0.498	0.53
0.499	0.527
0.501	0.526
0.502	0.526
0.504	0.527
0.506	0.529
0.507	0.532
0.509	0.535
0.51	0.537
0.512	0.539
0.514	0.54
0.515	0.539
0.517	0.537
0.518	0.532
0.52	0.524
0.522	0.514
0.523	0.502
0.525	0.487
0.526	0.47
0.528	0.451
0.53	0.432
0.531	0.411
0.532	0.4
0.533	0.391
0.534	0.37
0.536	0.35
0.538	0.331
0.539	0.312
0.541	0.295
0.542	0.278
0.544	0.263
0.546	0.249
0.547	0.236
0.549	0.224
0.55	0.214
0.552	0.204
0.554	0.195
0.555	0.187
0.557	0.18
0.558	0.174
0.56	0.168
0.562	0.163
0.563	0.159
0.565	0.155
0.566	0.152
0.568	0.15
0.57	0.148
0.571	0.147
0.573	0.146
0.574	0.145
0.576	0.145
0.578	0.146
0.579	0.147
0.581	0.149
0.582	0.151
0.584	0.154
0.586	0.158
0.587	0.162
0.589	0.167
0.59	0.173
0.592	0.18
0.594	0.187
0.595	0.197
0.597	0.207
0.598	0.219
0.6	0.233
0.602	0.249
0.603	0.268
0.605	0.29
0.606	0.316
0.608	0.346
0.61	0.381
0.611	0.423
0.613	0.472
0.614	0.53
0.616	0.598
0.618	0.676
0.619	0.764
0.621	0.855
0.622	0.942
0.624	1.011
0.626	1.044
0.627	1.027
0.629	0.958
0.63	0.849
0.632	0.72
0.634	0.593
0.635	0.48
0.637	0.384
0.638	0.307
0.64	0.246
0.642	0.197
0.643	0.159
0.645	0.129
0.646	0.105
0.648	0.086
0.65	0.07
0.651	0.058
0.653	0.048
0.654	0.039
0.656	0.032
0.658	0.027
0.659	0.022
0.661	0.018
0.662	0.015
0.664	0.012
0.666	0.01
0.667	0.008
0.669	0.006
0.67	0.005
0.672	0.004
0.674	0.003
0.675	0.002
0.677	0.002
0.678	0.001
0.68	0.001
0.682	0.001
0.683	0
0.685	0
0.686	0
0.688	7.339E-5
0.69	5.931E-5
0.691	4.683E-5
0.693	3.591E-5
0.694	2.651E-5
0.696	1.859E-5
0.698	1.212E-5
0.699	7.07E-6
0.701	3.39E-6
0.702	1.06E-6
0.704	5.18E-8
0.706	0
0.707	0
0.709	0
0.71	0
0.712	0
0.714	0
0.715	0
0.717	0
0.718	0
0.72	0
0.722	0
0.723	0
0.725	0
0.726	0
0.728	0
0.73	0
0.731	0
0.733	0
0.734	0
0.736	0
0.738	0
0.739	0
0.741	0
0.742	0
0.744	0
0.746	0
0.747	0
0.749	0
0.75	0
0.752	0
0.754	0
0.755	0
0.757	0
0.758	0
0.76	0
0.762	0
0.763	0
0.765	0
0.766	0
0.768	0
0.77	0
0.771	0
0.773	0
0.774	0
0.776	0
0.778	0
0.779	0
0.781	0
0.782	0
0.784	0
0.786	0
0.787	0
0.789	0
0.79	0
0.792	0
0.794	0
0.795	0
0.797	0
0.798	0
0.8	0
0.802	0
0.803	0
0.805	0
0.806	0
0.808	0
0.81	0
0.811	0
0.813	0
0.814	0
0.816	0
0.818	0
0.819	0
0.821	0
0.822	0
0.824	0
0.826	0
0.827	0
0.829	0
0.83	0
0.832	0
0.834	0
0.835	0
0.837	0
0.838	0
0.84	0
0.842	0
0.843	0
0.845	0
0.846	0
0.848	0
0.85	0
0.851	0
0.853	0
0.854	0
0.856	0
0.858	0
0.859	0
0.861	0
0.862	0
0.864	0
0.866	0
0.867	0
0.869	0
0.87	0
0.872	0
0.874	0
0.875	0
0.877	0
0.878	0
0.88	0
0.882	0
0.883	0
0.885	0
0.886	0
0.888	0
0.89	0
0.891	0
0.893	0
0.894	0
0.896	0
0.898	0
0.899	0
0.901	0
0.902	0
0.904	0
0.906	0
0.907	0
0.909	0
0.91	0
0.912	0
0.914	0
0.915	0
0.917	0
0.918	0
0.92	0
0.922	0
0.923	0
0.925	0
0.926	0
0.928	0
0.93	0
0.931	0
0.933	0
0.934	0
0.936	0
0.938	0
0.939	0
0.941	0
0.942	0
0.944	0
0.946	0
0.947	0
0.949	0
0.95	0
0.952	0
0.954	0
0.955	0
0.957	0
0.958	0
0.96	0
0.962	0
0.963	0
0.965	0
0.966	0
0.968	0
0.97	0
0.971	0
0.973	0
0.974	0
0.976	0
0.978	0
0.979	0
0.981	0
0.982	0
0.984	0
0.986	0
0.987	0
0.989	0
0.99	0
0.992	0
0.994	0
0.995	0
0.997	0
0.998	0
1	0