# Wavelength(μm) Transmission
0.0299274	0.04734790510991363
0.0301027	0.04617159400603324
0.030279	0.0450081530027151
0.0304564	0.043862404185573425
0.0306348	0.04273521363943929
0.0308143	0.04162574148702553
0.0309948	0.04053400399313005
0.0311764	0.03945471422033149
0.031359	0.03838913599657287
0.0315427	0.037342746133628785
0.0317275	0.03633170102894481
0.0319133	0.03536096665321854
0.0321003	0.03441771279209908
0.0322883	0.03350988182850779
0.0324775	0.03264264736331648
0.0326677	0.031793257756910775
0.0328591	0.03014461085165962
0.0330516	0.027996172838969186
0.0332452	0.02614411773250634
0.0334399	0.02437924835584857
0.0336358	0.022690608251915483
0.0338329	0.021086689775494803
0.0340311	0.019576733732563113
0.0342304	0.018159258807834484
0.0344309	0.016831967253641437
0.0346326	0.015580708853801443
0.0348355	0.014416997287462204
0.0350396	0.013338092646386277
0.0352448	0.012339855457576798
0.0354513	0.01141760304884027
0.035659	0.01057254365430938
0.0358679	0.009789233494805732
0.036078	0.009053458810040953
0.0362893	0.008354905970855897
0.0365019	0.007679194479774513
0.0367157	0.0070330495584161115
0.0369308	0.006421438811159599
0.0371471	0.005844680428396606
0.0373648	0.005302033736562557
0.0375836	0.004786441526026041
0.0378038	0.00430782941289824
0.0380253	0.0038654621433902962
0.038248	0.0034582989829282052
0.0384721	0.0030820940582537326
0.0386974	0.0027361867248169446
0.0389241	0.002422331162377224
0.0391521	0.002138565039233596
0.0393815	0.0018829221666112393
0.0396122	0.001650348853375257
0.0398442	0.0014421935591732628
0.0400776	0.0012568678785586963
0.0403124	0.0010923825112404183
0.0405486	0.0009462698276508748
0.0407861	0.0008160087744432266
0.041025	0.0007016075455423881
0.0412653	0.000601429935944127
0.0415071	0.0005139669562647748
0.0417502	0.0004370815008699812
0.0419948	0.00037005280880404793
0.0422408	0.00031213665054382765
0.0424882	0.0002622513592447014
0.0427371	0.00021941942284166248
0.0429875	0.000182175616477213
0.0432393	0.00015046821910432882
0.0434926	0.00012358337035338666
0.0437474	0.00010088850016614373
0.0440036	0.00008165787864550123
0.0442614	0.00006537547679362254
0.0445207	0.000051834904209882335
0.0447815	0.0000406379198524904
0.0450438	0.00003144096573319131
0.0453077	0.000023700572151990702
0.0455731	0.000017939102439499963
0.0458401	0.000013953840456146357
0.0461086	0.000011327983649479864
0.0463787	0.000009749827626998751
0.0466504	0.00000922914267203864
0.0469237	0.000009566243799930833
0.0471985	0.000010976896442932562
0.047475	0.000014009634001485152
0.0477531	0.000020016117843707932
0.0480329	0.00002929442512616659
0.0483143	0.000043027155979533265
0.0485973	0.00006284084514176983
0.048882	0.00009060693625475612
0.0491683	0.00012725520491531746
0.0494563	0.00017408174725335045
0.0497461	0.00023167027270577556
0.0500375	0.0002996219621130567
0.0503306	0.00037520977763736763
0.0506254	0.00045536581473029034
0.050922	0.0005482063537049824
0.0512203	0.0006574787135103419
0.0515203	0.0007869306284307081
0.0518221	0.0009397900098027459
0.0521257	0.0011197297317167545
0.0524311	0.0013312919041365702
0.0527382	0.0015799857245101586
0.0530471	0.0018729922133121795
0.0533579	0.002232038652095393
0.0536705	0.0026998784882775622
0.0539849	0.003313740184885294
0.0543011	0.004122339665180395
0.0546192	0.005200777521221231
0.0549391	0.006630858139615602
0.055261	0.008494425479768239
0.0555847	0.010895224777811907
0.0559103	0.013932761824479938
0.0562378	0.017435128286605667
0.0565673	0.020806398542072488
0.0568986	0.023825657674329134
0.057232	0.026282977677816618
0.0575672	0.02797610434918015
0.0579044	0.028729592143642377
0.0582436	0.028799369400113968
0.0585848	0.02825677131903908
0.058928	0.02721029264624047
0.0592732	0.025728288748055283
0.0596204	0.024339169056464542
0.0599697	0.023674867051886806
0.060321	0.02383881778037122
0.0606744	0.024786192728801917
0.0610298	0.026761606311685053
0.0613873	0.029581616442921944
0.0617469	0.033393185806943296
0.0621086	0.038397127960956075
0.0624724	0.04493942237983389
0.0628384	0.053245094318304334
0.0632065	0.06319174885510834
0.0635768	0.07366610324299415
0.0639492	0.08221415925499027
0.0643238	0.08049966662465027
0.0647006	0.07220450616288993
0.0650796	0.060505771062663964
0.0654609	0.047848915788727214
0.0658443	0.03594187580296266
0.0662301	0.025619992090533603
0.066618	0.02214518160342487
0.0670083	0.02241036900763517
0.0674008	0.024514449370719706
0.0677956	0.023417225666909576
0.0681928	0.02308635273179385
0.0685923	0.023541259639588065
0.0689941	0.024867571154087647
0.0693982	0.02721114706580197
0.0698048	0.03143653892971838
0.0702137	0.03921925873294356
0.070625	0.05296412931746841
0.0710387	0.07715169509845438
0.0714549	0.12026643642058453
0.0718734	0.19201434204405127
0.0722945	0.2219319976848885
0.072718	0.1922320996104883
0.073144	0.14018872603123786
0.0735724	0.11803578932577821
0.0740034	0.09903763077802878
0.0744369	0.08291505773180999
0.074873	0.06922271791238906
0.0753116	0.05753093039000788
0.0757528	0.04744570235359406
0.0761965	0.039875576148414506
0.0766429	0.03427426641980573
0.0770918	0.03018699329516841
0.0775434	0.027356703033932048
0.0779977	0.025595975909769274
0.0784546	0.02475892775574138
0.0789142	0.02409358329710374
0.0793765	0.022697259722987896
0.0798414	0.019115620658809715
0.0803092	0.014733915343611681
0.0807796	0.010354531366795624
0.0812528	0.0068188836133564875
0.0817288	0.00452726928750465
0.0822076	0.0035670014390091352
0.0826891	0.003095312447523581
0.0831735	0.002850136706768429
0.0836607	0.0026775547039075013
0.0841508	0.0024018035643327304
0.0846438	0.0020025378649186597
0.0851396	0.001585790458516082
0.0856384	0.0012366794478479908
0.08614	0.0009993735358297556
0.0866446	0.000889131411485513
0.0871522	0.0008589840555456057
0.0876627	0.0008315746197641277
0.0881763	0.0007615030281604089
0.0886928	0.0006310782550405893
0.0892124	0.000565277536017909
0.089735	0.0005794898039570169
0.0902606	0.0006277809839330926
0.0907894	0.0006416286851257102
0.0913212	0.0005057108107848151
0.0918562	0.00045891042212316355
0.0923943	0.00048759528572257457
0.0929355	0.0005244595623442583
0.0934799	0.00041038399679784896
0.0940275	0.0004945172628077715
0.0945783	0.0004949585059946452
0.0951324	0.0004693214017561267
0.0956897	0.00047288251378154464
0.0962502	0.0004955548523334835
0.096814	0.0005563688485457893
0.0973812	0.0005806809248164359
0.0979516	0.0005726177797957192
0.0985254	0.0005691144859027495
0.0991026	0.000540323118604049
0.0996831	0.0005320189165339384
0.100267	0.0005303087250400358
0.100854	0.0005287558396043871
0.101445	0.0005273760566302908
0.102039	0.0005261108025086746
0.102637	0.0005250269410064207
0.103238	0.0005420036991751187
0.103843	0.0005911846879693438
0.104452	0.0006288190782221118
0.105063	0.0007043726245819289
0.105679	0.0007644513908851914
0.106298	0.0008065609221387706
0.106921	0.0008719932095331484
0.107547	0.0009930639947266517
0.108177	0.0011549645521191905
0.108811	0.0013121677193954732
0.109448	0.0014152329777569923
0.110089	0.0014401289299197802
0.110734	0.0015238073890381123
0.111383	0.0017243170566221017
0.112035	0.0021574564552902763
0.112692	0.003044608993853825
0.113352	0.004068719860417206
0.114016	0.014084479236538683
0.114684	0.063157461061191
0.115355	0.18022511406701003
0.116031	0.25325261368286117
0.116711	0.35380668931764825
0.117395	0.491459092762012
0.118082	0.6188866657519023
0.118774	0.6404548676472519
0.11947	0.6624004712515286
0.12017	0.6837917172028555
0.120874	0.7043802075494505
0.121582	0.7252282898173802
0.122294	0.7463306188072388
0.12301	0.7676818823166018
0.123731	0.7892744781540401
0.124456	0.8110932932515361
0.125185	0.8331324396393252
0.125918	0.8553820238243932
0.126656	0.8658831819341712
0.127398	0.8748507579696303
0.128144	0.8837550693023556
0.128895	0.8926075246699784
0.12965	0.9013929227940367
0.130409	0.9101178832550196
0.131173	0.9128392803177845
0.131942	0.9147285947003828
0.132714	0.9165933287219556
0.133492	0.9184395915824246
0.134274	0.9202579891564918
0.13506	0.9220528469074663
0.135852	0.9241536063983331
0.136647	0.9273040101082404
0.137448	0.9304192015421814
0.138253	0.9334900731003936
0.139063	0.9365253716867434
0.139878	0.9395211029615513
0.140697	0.9424769686347647
0.141521	0.9441049807274116
0.14235	0.9450738011009179
0.143184	0.9460302270479012
0.144023	0.9469783180507616
0.144867	0.9479102168967849
0.145715	0.9488296616293289
0.146569	0.9499641608132477
0.147427	0.952221186147175
0.148291	0.9544513976290032
0.14916	0.9566468508919358
0.150033	0.9588151990049352
0.150912	0.960949446669841
0.151796	0.9622041723165712
0.152686	0.9630326130435162
0.15358	0.9638492914886405
0.15448	0.9646585458257099
0.155385	0.9662475439172663
0.156295	0.9678777525840683
0.15721	0.9694853065973289
0.158131	0.9710742572703769
0.159058	0.9726336288808642
0.159989	0.974144972683491
0.160927	0.9754849492294071
0.161869	0.9768008533066785
0.162818	0.9781005820351978
0.163771	0.9789835234686112
0.164731	0.9796856755438023
0.165696	0.9803772033840519
0.166666	0.9810582149077254
0.167643	0.9816160066302749
0.168625	0.9820487253502573
0.169613	0.9824772351844101
0.170606	0.98289798723718
0.171606	0.9833803935744121
0.172611	0.984105479053265
0.173622	0.9848197944973913
0.174639	0.9855234384509796
0.175662	0.98621650961609
0.176691	0.9868991068128942
0.177726	0.9875713289411535
0.178767	0.9882299405061222
0.179814	0.9886362840570009
0.180868	0.9886757522621961
0.181927	0.9890494980629839
0.182993	0.9895694926868887
0.184065	0.990084054377316
0.185143	0.990589996188987
0.186228	0.9910617773165841
0.187319	0.9912859592464043
0.188416	0.991504689854643
0.18952	0.9917212401595099
0.19063	0.9919355814428173
0.191747	0.9920759908586153
0.19287	0.9921871073684787
0.194	0.9922972265026495
0.195136	0.9924063148521146
0.196279	0.9925113680794513
0.197429	0.9926154766608941
0.198586	0.9927186458919826
0.199749	0.9928208453324538
0.200919	0.9929221176546522
0.202096	0.993019504514462
0.20328	0.9931160092160103
0.204471	0.9932116370793627
0.205669	0.9933034803177008
0.206873	0.9933973555720226
0.208085	0.9934875227473046
0.209304	0.9935768678145551
0.21053	0.9936653960611261
0.211764	0.9937503116323284
0.213004	0.9938344235642138
0.214252	0.9939205934589983
0.215507	0.9940031846271621
0.216769	0.9940822504656808
0.218039	0.9941633710857808
0.219316	0.9942410074172541
0.220601	0.994320675071429
0.221894	0.9943969244750902
0.223193	0.9944697567453736
0.224501	0.994544641725322
0.225816	0.9946188310679065
0.227139	0.9946897117613056
0.228469	0.9947599366252978
0.229808	0.9948295554594752
0.231154	0.9948985265956682
0.232508	0.9949668765951121
0.23387	0.9950346091863432
0.23524	0.9950991765716944
0.236618	0.9951631635103403
0.238004	0.9952265735922592
0.239398	0.9952894104403741
0.240801	0.9953516969670582
0.242211	0.9954133979717747
0.24363	0.9954745553269323
0.245057	0.9955327031078766
0.246493	0.9955903415990931
0.247937	0.9956498780591178
0.249389	0.9957064576341825
0.25085	0.9957625370586414
0.25232	0.9958157384316907
0.253798	0.9958708230795426
0.255285	0.9959254162225338
0.25678	0.9959771654148784
0.258284	0.9960284562787118
0.259797	0.9960792914191033
0.261319	0.996131972779739
0.26285	0.9961818911449805
0.26439	0.9962290890505956
0.265938	0.9962781140328326
0.267496	0.9963267110231592
0.269063	0.9963726348962608
0.270639	0.9964203687030239
0.272225	0.9964654736432551
0.27382	0.9965101725738154
0.275424	0.9965544681472036
0.277037	0.9965983630333826
0.27866	0.9966418719491891
0.280292	0.9966849851180751
0.281934	0.9967277168527567
0.283586	0.9967679491196142
0.285247	0.996809925380951
0.286918	0.9968494312451022
0.288599	0.9968906723448601
0.290289	0.9969294609582476
0.29199	0.9969679160881961
0.2937	0.9970060188382821
0.295421	0.9970437918145445
0.297151	0.9970812169233312
0.298892	0.9971183160646975
0.300643	0.9971550813680385
0.302404	0.9971895259403157
0.304176	0.9972256506171674
0.305958	0.9972594814464087
0.30775	0.9972949641286908
0.309553	0.9973281886036975
0.311366	0.9973611140165891
0.31319	0.9973937507074861
0.315025	0.9974261002631559
0.31687	0.9974581562820566
0.318726	0.9974899286998227
0.320593	0.9975214191622429
0.322471	0.9975526293348436
0.32436	0.9975835609017578
0.32626	0.9976123711884762
0.328172	0.9976427685241234
0.330094	0.997672885037536
0.332028	0.9977009242004758
0.333973	0.9977287141101596
0.335929	0.9977580479069531
0.337897	0.997785340265345
0.339876	0.9978123880089711
0.341867	0.9978391990818434
0.34387	0.9978657747816625
0.345884	0.997892110337407
0.347911	0.9979182193697472
0.349949	0.9979440911618573
0.351999	0.997969733164335
0.354061	0.997993446551154
0.356135	0.9980186429817837
0.358221	0.9980436137418899
0.360319	0.9980666894524455
0.36243	0.9980912280871311
0.364553	0.9981138936193409
0.366689	0.9981380050959948
0.368837	0.9981602652524629
0.370998	0.9981823317610755
0.373171	0.9982042008676822
0.375357	0.9982274827369565
0.377556	0.9982489609088173
0.379767	0.9982702454046284
0.381992	0.9982913465155632
0.38423	0.9983122607283305
0.386481	0.9983329891752707
0.388745	0.9983519839324868
0.391022	0.9983723532777624
0.393312	0.998392540265082
0.395616	0.9984125500766795
0.397934	0.9984308702583093
0.400265	0.9984505335387825
0.40261	0.9984685267697465
0.404968	0.9984878476966188
0.407341	0.9985055216572346
0.409727	0.9985245080160101
0.412127	0.9985418628699785
0.414541	0.998559065690696
0.41697	0.9985775653297372
0.419412	0.9985944583621977
0.421869	0.9986112054445128
0.42434	0.9986278041020481
0.426826	0.9986442584509431
0.429326	0.9986605661532649
0.431841	0.9986767312295928
0.434371	0.9986927544803518
0.436916	0.9987086367167032
0.439475	0.9987243758592087
0.44205	0.9987399785924103
0.444639	0.9987554400052205
0.447244	0.9987694195771482
0.449864	0.9987846171685629
0.452499	0.9987996787583867
0.45515	0.9988132841459394
0.457816	0.9988280865481245
0.460498	0.9988414496141041
0.463195	0.9988559959078971
0.465909	0.9988691220105387
0.468638	0.9988834176720872
0.471383	0.9988963072062789
0.474145	0.9989103575154181
0.476922	0.9989230157045953
0.479716	0.9989355651960042
0.482526	0.9989480043710901
0.485353	0.9989615775415047
0.488196	0.9989737929944895
0.491056	0.9989859022358094
0.493932	0.9989979038310649
0.496826	0.9990098024729556
0.499736	0.9990215947494381
0.502664	0.9990332852249685
0.505608	0.9990448706420977
0.50857	0.9990563554398052
0.511549	0.9990677383308557
0.514546	0.9990790217448772
0.51756	0.9990902044745373
0.520592	0.9991001312858314
0.523642	0.9991111246954433
0.526709	0.9991220192273967
0.529795	0.9991328188212701
0.532898	0.9991423898300347
0.53602	0.9991530045145487
0.53916	0.9991624064779947
0.542318	0.9991728384471047
0.545495	0.9991831781726354
0.548691	0.9991923277512683
0.551905	0.999202489521151
0.555138	0.9992114749704839
0.55839	0.9992214623463541
0.561661	0.9992302870497433
0.564951	0.9992390352215945
0.568261	0.9992487692974696
0.571589	0.999257359575108
0.574938	0.9992658772783589
0.578306	0.9992743202308287
0.581693	0.9992837251083839
0.585101	0.9992920163700317
0.588528	0.999300234255473
0.591976	0.9993083815829988
0.595444	0.9993164575682061
0.598932	0.9993244626407612
0.60244	0.9993323972345356
0.60597	0.9993402639640845
0.609519	0.9993480599484369
0.61309	0.9993557888420629
0.616681	0.9993634489190023
0.620294	0.999371042660246
0.623927	0.9993785684230442
0.627582	0.9993860286239526
0.631259	0.9993934236213137
0.634957	0.9994007528352737
0.638676	0.9994080166850488
0.642418	0.9994142790321482
0.646181	0.9994214206361929
0.649966	0.9994284989337254
0.653774	0.9994355151724309
0.657603	0.9994415512612792
0.661456	0.9994484489439356
0.66533	0.9994552839692428
0.669228	0.9994611583616936
0.673148	0.9994678777581848
0.677092	0.9994736476349256
0.681058	0.9994802527288658
0.685048	0.9994859193105575
0.689061	0.9994924121940401
0.693097	0.9994979767167023
0.697157	0.9995043587066103
0.701241	0.9995098238295501
0.705349	0.9995160969290815
0.709481	0.999521463803702
0.713637	0.9995276292949022
0.717818	0.999532899750566
0.722022	0.9995381239026532
0.726252	0.999544134111951
0.730506	0.9995492641909247
0.734786	0.9995543506591955
0.73909	0.9995593925453576
0.74342	0.9995652023198486
0.747775	0.9995701528891074
0.752155	0.9995750602742086
0.756561	0.9995799252936112
0.760993	0.9995847481843287
0.765451	0.9995895291864881
0.769935	0.9995942685431588
0.774445	0.9995997450501503
0.778982	0.9996043978338546
0.783545	0.9996090097264958
0.788135	0.999613581471887
0.792752	0.9996181133000779
0.797396	0.9996226054439159
0.802067	0.9996270581388873
0.806766	0.9996314720796753
0.811492	0.9996358470337737
0.816245	0.9996394445338231
0.821027	0.9996437474104608
0.825836	0.999648011978388
0.830674	0.9996522393240866
0.83554	0.9996564292426856
0.840435	0.9996605823691344
0.845358	0.9996646985184175
0.85031	0.9996680691790578
0.855291	0.9996721169671439
0.860301	0.9996761288137305
0.865341	0.9996801053092043
0.87041	0.9996833535221824
0.875509	0.9996872636085564
0.880638	0.9996911389491344
0.885796	0.9996942986638452
0.890985	0.99969810911228
0.896205	0.9997018857593778
0.901455	0.9997049595485886
0.906735	0.9997086724453881
0.912047	0.9997123524562875
0.91739	0.9997153421427156
0.922764	0.9997189601662639
0.928169	0.9997218958852655
0.933607	0.9997254532492269
0.939076	0.9997283362260285
0.944577	0.9997318333373988
0.95011	0.9997346641875703
0.955676	0.999738102325664
0.961274	0.9997408819395173
0.966905	0.9997442617945672
0.972569	0.9997469910432355
0.978267	0.9997503138248296
0.983997	0.9997529933015491
0.989762	0.9997556503997465
0.99556	0.9997588904719764
1.00139	0.9997614984301069
1.00726	0.9997640855719367
1.01316	0.9997672448621315
1.01909	0.9997697825883367
1.02506	0.9997722998427706
1.03107	0.9997753815659911
1.03711	0.9997778525157776
1.04318	0.9997803011748365
1.04929	0.9997827297903662
1.05544	0.9997857098134013
1.06162	0.9997880932345227
1.06784	0.999790456921351
1.0741	0.9997928009526083
1.08039	0.9997951235134556
1.08672	0.9997979815876366
1.09308	0.9998002603211434
1.09949	0.9998025216758597
1.10593	0.9998047621168908
1.11241	0.9998069835611134
1.11892	0.9998091843951167
1.12548	0.9998113681522712
1.13207	0.9998135315461383
1.1387	0.9998156763778114
1.14537	0.9998178027448822
1.15208	0.9998199107465353
1.15883	0.9998220004834691
1.16562	0.9998240720578169
1.17245	0.9998261255730708
1.17932	0.9998281611340081
1.18623	0.9998301788466181
1.19317	0.9998321774116353
1.20016	0.999834159774765
1.20719	0.9998361246137296
1.21427	0.9998380733721217
1.22138	0.9998400034705488
1.22853	0.9998419163782324
1.23573	0.9998438134716119
1.24297	0.9998456935552108
1.25025	0.9998475567440466
1.25757	0.9998494031537053
1.26494	0.9998507572980053
1.27235	0.9998525744077098
1.2798	0.9998543750292931
1.2873	0.9998561603984414
1.29484	0.9998579294762215
1.30243	0.999859220401533
1.31006	0.999860960990861
1.31773	0.9998626855936742
1.32545	0.9998643953543568
1.33322	0.9998660903383492
1.34103	0.9998673198935878
1.34888	0.9998689862264913
1.35678	0.9998706380465259
1.36473	0.999871833498918
1.37273	0.9998734590808429
1.38077	0.9998750694470377
1.38886	0.9998762313614198
1.39699	0.9998778150526264
1.40517	0.9998793847116119
1.41341	0.9998805145493619
1.42169	0.9998820588449212
1.43001	0.9998835885150027
1.43839	0.9998846859836299
1.44682	0.9998861915442491
1.45529	0.9998876827512709
1.46382	0.9998887492288432
1.47239	0.9998902159632177
1.48102	0.999891262879944
