# Wavelength(μm) Extinction_cofficient
0.29	3.21676
0.291	3.23025
0.292	3.24353
0.293	3.25656
0.294	3.2693
0.295	3.28167
0.296	3.2936
0.297	3.30501
0.298	3.31579
0.299	3.32582
0.3	3.33491
0.301	3.34302
0.302	3.34988
0.303	3.35524
0.304	3.35889
0.305	3.36054
0.306	3.3598
0.307	3.35628
0.308	3.34951
0.309	3.33903
0.31	3.32407
0.311	3.30414
0.312	3.27816
0.313	3.24569
0.314	3.20598
0.315	3.1575
0.316	3.09958
0.317	3.03204
0.318	2.95379
0.319	2.86526
0.32	2.76508
0.321	2.65541
0.322	2.53668
0.323	2.41069
0.324	2.2799
0.325	2.14837
0.326	2.01823
0.327	1.89384
0.328	1.77619
0.329	1.67004
0.33	1.57662
0.331	1.49821
0.332	1.43504
0.333	1.38766
0.334	1.35618
0.335	1.34037
0.336	1.33926
0.337	1.35173
0.338	1.37655
0.339	1.41227
0.34	1.45727
0.341	1.50917
0.342	1.56576
0.343	1.62493
0.344	1.6815
0.345	1.73597
0.346	1.78919
0.347	1.84135
0.348	1.89207
0.349	1.94194
0.35	1.99102
0.351	2.0389
0.352	2.08564
0.353	2.13177
0.354	2.17733
0.355	2.22234
0.356	2.26596
0.357	2.30956
0.358	2.3523
0.359	2.39422
0.36	2.43576
0.361	2.47698
0.362	2.51746
0.363	2.55767
0.364	2.59719
0.365	2.63647
0.366	2.67513
0.367	2.71317
0.368	2.75145
0.369	2.78874
0.37	2.82628
0.371	2.86287
0.372	2.89932
0.373	2.93566
0.374	2.97147
0.375	3.00717
0.376	3.04235
0.377	3.07703
0.378	3.1116
0.379	3.14606
0.38	3.18
0.381	3.21342
0.382	3.2467
0.383	3.27945
0.384	3.31203
0.385	3.34406
0.386	3.3755
0.387	3.40673
0.388	3.43771
0.389	3.46805
0.39	3.49771
0.391	3.52704
0.392	3.55564
0.393	3.58347
0.394	3.61085
0.395	3.63738
0.396	3.66336
0.397	3.6884
0.398	3.71276
0.399	3.73608
0.4	3.7583
0.401	3.77963
0.402	3.79975
0.403	3.81859
0.404	3.83631
0.405	3.85261
0.406	3.8676
0.407	3.881
0.408	3.89276
0.409	3.90292
0.41	3.91126
0.411	3.91771
0.412	3.92227
0.413	3.92476
0.414	3.92514
0.415	3.92329
0.416	3.91917
0.417	3.91274
0.418	3.90382
0.419	3.89247
0.42	3.87845
0.421	3.8619
0.422	3.84283
0.423	3.82125
0.424	3.79683
0.425	3.7699
0.426	3.74008
0.427	3.70781
0.428	3.67318
0.429	3.63629
0.43	3.59666
0.431	3.55495
0.432	3.51064
0.433	3.46517
0.434	3.41737
0.435	3.36728
0.436	3.31661
0.437	3.26398
0.438	3.20952
0.439	3.15505
0.44	3.09909
0.441	3.04267
0.442	2.98596
0.443	2.92824
0.444	2.87056
0.445	2.8131
0.446	2.75508
0.447	2.69848
0.448	2.64071
0.449	2.58461
0.45	2.52848
0.451	2.47422
0.452	2.41927
0.453	2.36634
0.454	2.31377
0.455	2.2625
0.456	2.21256
0.457	2.164
0.458	2.11604
0.459	2.06954
0.46	2.02374
0.461	1.98017
0.462	1.93734
0.463	1.89601
0.464	1.85615
0.465	1.8171
0.466	1.78015
0.467	1.744
0.468	1.70868
0.469	1.67537
0.47	1.64285
0.471	1.61171
0.472	1.5819
0.473	1.55288
0.474	1.52564
0.475	1.49916
0.476	1.47391
0.477	1.44941
0.478	1.4265
0.479	1.40432
0.48	1.38324
0.481	1.36287
0.482	1.34393
0.483	1.32566
0.484	1.30839
0.485	1.29209
0.486	1.27673
0.487	1.262
0.488	1.24819
0.489	1.23525
0.49	1.22315
0.491	1.21167
0.492	1.2012
0.493	1.19131
0.494	1.18219
0.495	1.17366
0.496	1.16601
0.497	1.15894
0.498	1.15256
0.499	1.14686
0.5	1.14182
0.501	1.13742
0.502	1.13356
0.503	1.13033
0.504	1.1277
0.505	1.12567
0.506	1.12417
0.507	1.12326
0.508	1.1229
0.509	1.12308
0.51	1.1238
0.511	1.12503
0.512	1.12679
0.513	1.12906
0.514	1.13181
0.515	1.13504
0.516	1.13872
0.517	1.14294
0.518	1.14751
0.519	1.15259
0.52	1.15809
0.521	1.16399
0.522	1.17041
0.523	1.17707
0.524	1.18423
0.525	1.19173
0.526	1.19956
0.527	1.20769
0.528	1.2163
0.529	1.22498
0.53	1.23411
0.531	1.24346
0.532	1.25301
0.533	1.26296
0.534	1.27283
0.535	1.28305
0.536	1.29312
0.537	1.30348
0.538	1.31385
0.539	1.32445
0.54	1.33475
0.541	1.34519
0.542	1.35525
0.543	1.36536
0.544	1.37525
0.545	1.38485
0.546	1.39435
0.547	1.40325
0.548	1.41192
0.549	1.4201
0.55	1.42757
0.551	1.43479
0.552	1.4412
0.553	1.44693
0.554	1.45203
0.555	1.45622
0.556	1.45968
0.557	1.46224
0.558	1.46388
0.559	1.46456
0.56	1.46424
0.561	1.46291
0.562	1.46051
0.563	1.45704
0.564	1.4525
0.565	1.44691
0.566	1.44028
0.567	1.43264
0.568	1.42379
0.569	1.41394
0.57	1.40346
0.571	1.39183
0.572	1.37939
0.573	1.36622
0.574	1.35203
0.575	1.33762
0.576	1.32232
0.577	1.30704
0.578	1.29104
0.579	1.27484
0.58	1.25854
0.581	1.24182
0.582	1.22565
0.583	1.20971
0.584	1.19369
0.585	1.17814
0.586	1.16355
0.587	1.14924
0.588	1.13573
0.589	1.12279
0.59	1.11124
0.591	1.10084
0.592	1.09146
0.593	1.08353
0.594	1.07733
0.595	1.07266
0.596	1.06984
0.597	1.06902
0.598	1.07038
0.599	1.07403
0.6	1.08029
0.601	1.08893
0.602	1.10052
0.603	1.11489
0.604	1.13195
0.605	1.15149
0.606	1.17313
0.607	1.19623
0.608	1.22054
0.609	1.24334
0.61	1.26428
0.611	1.28056
0.612	1.28985
0.613	1.29071
0.614	1.28122
0.615	1.25995
0.616	1.22849
0.617	1.18781
0.618	1.13856
0.619	1.08631
0.62	1.03056
0.621	0.97521
0.622	0.92209
0.623	0.87243
0.624	0.8269
0.625	0.78578
0.626	0.74907
0.627	0.71558
0.628	0.68708
0.629	0.66138
0.63	0.63909
0.631	0.62037
0.632	0.60371
0.633	0.58944
0.634	0.57729
0.635	0.56674
0.636	0.55821
0.637	0.5512
0.638	0.54537
0.639	0.54097
0.64	0.53757
0.641	0.53526
0.642	0.53394
0.643	0.53353
0.644	0.53398
0.645	0.53521
0.646	0.5372
0.647	0.53988
0.648	0.54335
0.649	0.54732
0.65	0.55203
0.651	0.55729
0.652	0.56284
0.653	0.56899
0.654	0.57546
0.655	0.58213
0.656	0.58886
0.657	0.59566
0.658	0.60184
0.659	0.60731
0.66	0.61179
0.661	0.61448
0.662	0.61494
0.663	0.61226
0.664	0.60554
0.665	0.59385
0.666	0.5763
0.667	0.55211
0.668	0.52086
0.669	0.48258
0.67	0.43799
0.671	0.38668
0.672	0.33426
0.673	0.27948
0.674	0.22678
0.675	0.17996
0.676	0.13706
0.677	0.10072
0.678	0.07109
0.679	0.04786
0.68	0.03038
0.681	0.01752
0.682	0.00931
0.683	0.00449
0.684	0.00236
0.685	0.00195
0.686	0.00164
0.687	0.00137
0.688	0.00113
0.689	9.25752E-4
0.69	7.50977E-4
0.691	6.07353E-4
0.692	4.93591E-4
0.693	4.0844E-4
0.694	3.43058E-4
0.695	2.82634E-4
0.696	2.31106E-4
0.697	1.84078E-4
0.698	1.4465E-4
0.699	1.09453E-4
0.7	8.07724E-5
0.701	5.60388E-5
0.702	3.62073E-5
0.703	2.09684E-5
0.704	1.00524E-5
0.705	3.20743E-6
0.706	1.96301E-7
0.707	0
0.708	0
0.709	0
0.71	0
0.711	0
0.712	0
0.713	0
0.714	0
0.715	0
0.716	0
0.717	0
0.718	0
0.719	0
0.72	0
0.721	0
0.722	0
0.723	0
0.724	0
0.725	0
0.726	0
0.727	0
0.728	0
0.729	0
0.73	0
0.731	0
0.732	0
0.733	0
0.734	0
0.735	0
0.736	0
0.737	0
0.738	0
0.739	0
0.74	0
0.741	0
0.742	0
0.743	0
0.744	0
0.745	0
0.746	0
0.747	0
0.748	0
0.749	0
0.75	0
0.751	0
0.752	0
0.753	0
0.754	0
0.755	0
0.756	0
0.757	0
0.758	0
0.759	0
0.76	0
0.761	0
0.762	0
0.763	0
0.764	0
0.765	0
0.766	0
0.767	0
0.768	0
0.769	0
0.77	0
0.771	0
0.772	0
0.773	0
0.774	0
0.775	0
0.776	0
0.777	0
0.778	0
0.779	0
0.78	0
0.781	0
0.782	0
0.783	0
0.784	0
0.785	0
0.786	0
0.787	0
0.788	0
0.789	0
0.79	0
0.791	0
0.792	0
0.793	0
0.794	0
0.795	0
0.796	0
0.797	0
0.798	0
0.799	0
0.8	0
0.801	0
0.802	0
0.803	0
0.804	0
0.805	0
0.806	0
0.807	0
0.808	0
0.809	0
0.81	0
0.811	0
0.812	0
0.813	0
0.814	0
0.815	0
0.816	0
0.817	0
0.818	0
0.819	0
0.82	0
0.821	0
0.822	0
0.823	0
0.824	0
0.825	0
0.826	0
0.827	0
0.828	0
0.829	0
0.83	0
0.831	0
0.832	0
0.833	0
0.834	0
0.835	0
0.836	0
0.837	0
0.838	0
0.839	0
0.84	0
0.841	0
0.842	0
0.843	0
0.844	0
0.845	0
0.846	0
0.847	0
0.848	0
0.849	0
0.85	0
0.851	0
0.852	0
0.853	0
0.854	0
0.855	0
0.856	0
0.857	0
0.858	0
0.859	0
0.86	0
0.861	0
0.862	0
0.863	0
0.864	0
0.865	0
0.866	0
0.867	0
0.868	0
0.869	0
0.87	0
0.871	0
0.872	0
0.873	0
0.874	0
0.875	0
0.876	0
0.877	0
0.878	0
0.879	0
0.88	0
0.881	0
0.882	0
0.883	0
0.884	0
0.885	0
0.886	0
0.887	0
0.888	0
0.889	0
0.89	0
0.891	0
0.892	0
0.893	0
0.894	0
0.895	0
0.896	0
0.897	0
0.898	0
0.899	0
0.9	0
0.901	0
0.902	0
0.903	0
0.904	0
0.905	0
0.906	0
0.907	0
0.908	0
0.909	0
0.91	0
0.911	0
0.912	0
0.913	0
0.914	0
0.915	0
0.916	0
0.917	0
0.918	0
0.919	0
0.92	0
0.921	0
0.922	0
0.923	0
0.924	0
0.925	0
0.926	0
0.927	0
0.928	0
0.929	0
0.93	0
0.931	0
0.932	0
0.933	0
0.934	0
0.935	0
0.936	0
0.937	0
0.938	0
0.939	0
0.94	0
0.941	0
0.942	0
0.943	0
0.944	0
0.945	0
0.946	0
0.947	0
0.948	0
0.949	0
0.95	0
0.951	0
0.952	0
0.953	0
0.954	0
0.955	0
0.956	0
0.957	0
0.958	0
0.959	0
0.96	0
0.961	0
0.962	0
0.963	0
0.964	0
0.965	0
0.966	0
0.967	0
0.968	0
0.969	0
0.97	0
0.971	0
0.972	0
0.973	0
0.974	0
0.975	0
0.976	0
0.977	0
0.978	0
0.979	0
0.98	0
0.981	0
0.982	0
0.983	0
0.984	0
0.985	0
0.986	0
0.987	0
0.988	0
0.989	0
0.99	0
0.991	0
0.992	0
0.993	0
0.994	0
0.995	0
0.996	0
0.997	0
0.998	0
0.999	0
1	0
1.001	0
1.002	0
1.003	0
1.004	0
1.005	0
1.006	0
1.007	0
1.008	0
1.009	0
1.01	0
1.011	0
1.012	0
1.013	0
1.014	0
1.015	0
1.016	0
1.017	0
1.018	0
1.019	0
1.02	0
1.021	0
1.022	0
1.023	0
1.024	0
1.025	0
1.026	0
1.027	0
1.028	0
1.029	0
1.03	0
1.031	0
1.032	0
1.033	0
1.034	0
1.035	0
1.036	0
1.037	0
1.038	0
1.039	0
1.04	0
1.041	0
1.042	0
1.043	0
1.044	0
1.045	0
1.046	0
1.047	0
1.048	0
1.049	0
1.05	0
1.051	0
1.052	0
1.053	0
1.054	0
1.055	0
1.056	0
1.057	0
1.058	0
1.059	0
1.06	0
1.061	0
1.062	0
1.063	0
1.064	0
1.065	0
1.066	0
1.067	0
1.068	0
1.069	0
1.07	0
1.071	0
1.072	0
1.073	0
1.074	0
1.075	0
1.076	0
1.077	0
1.078	0
1.079	0
1.08	0
1.081	0
1.082	0
1.083	0
1.084	0
1.085	0
1.086	0
1.087	0
1.088	0
1.089	0
1.09	0
1.091	0
1.092	0
1.093	0
1.094	0
1.095	0
1.096	0
1.097	0
1.098	0
1.099	0
1.1	0
1.101	0
1.102	0
1.103	0
1.104	0
1.105	0
1.106	0
1.107	0
1.108	0
1.109	0
1.11	0
1.111	0
1.112	0
1.113	0
1.114	0
1.115	0
1.116	0
1.117	0
1.118	0
1.119	0
1.12	0
1.121	0
1.122	0
1.123	0
1.124	0
1.125	0
1.126	0
1.127	0
1.128	0
1.129	0
1.13	0
1.131	0
1.132	0
1.133	0
1.134	0
1.135	0
1.136	0
1.137	0
1.138	0
1.139	0
1.14	0
1.141	0
1.142	0
1.143	0
1.144	0
1.145	0
1.146	0
1.147	0
1.148	0
1.149	0
1.15	0
1.151	0
1.152	0
1.153	0
1.154	0
1.155	0
1.156	0
1.157	0
1.158	0
1.159	0
1.16	0
1.161	0
1.162	0
1.163	0
1.164	0
1.165	0
1.166	0
1.167	0
1.168	0
1.169	0
1.17	0
1.171	0
1.172	0
1.173	0
1.174	0
1.175	0
1.176	0
1.177	0
1.178	0
1.179	0
1.18	0
1.181	0
1.182	0
1.183	0
1.184	0
1.185	0
1.186	0
1.187	0
1.188	0
1.189	0
1.19	0
1.191	0
1.192	0
1.193	0
1.194	0
1.195	0
1.196	0
1.197	0
1.198	0
1.199	0
1.2	0
1.201	0
1.202	0
1.203	0
1.204	0
1.205	0
1.206	0
1.207	0
1.208	0
1.209	0
1.21	0
1.211	0
1.212	0
1.213	0
1.214	0
1.215	0
1.216	0
1.217	0
1.218	0
1.219	0
1.22	0
1.221	0
1.222	0
1.223	0
1.224	0
1.225	0
1.226	0
1.227	0
1.228	0
1.229	0
1.23	0
1.231	0
1.232	0
1.233	0
1.234	0
1.235	0
1.236	0
1.237	0
1.238	0
1.239	0
1.24	0
1.241	0
1.242	0
1.243	0
1.244	0
1.245	0
1.246	0
1.247	0
1.248	0
1.249	0
1.25	0
1.251	0
1.252	0
1.253	0
1.254	0
1.255	0
1.256	0
1.257	0
1.258	0
1.259	0
1.26	0
1.261	0
1.262	0
1.263	0
1.264	0
1.265	0
1.266	0
1.267	0
1.268	0
1.269	0
1.27	0
1.271	0
1.272	0
1.273	0
1.274	0
1.275	0
1.276	0
1.277	0
1.278	0
1.279	0
1.28	0
1.281	0
1.282	0
1.283	0
1.284	0
1.285	0
1.286	0
1.287	0
1.288	0
1.289	0
1.29	0
1.291	0
1.292	0
1.293	0
1.294	0
1.295	0
1.296	0
1.297	0
1.298	0
1.299	0
1.3	0
1.301	0
1.302	0
1.303	0
1.304	0
1.305	0
1.306	0
1.307	0
1.308	0
1.309	0
1.31	0
1.311	0
1.312	0
1.313	0
1.314	0
1.315	0
1.316	0
1.317	0
1.318	0
1.319	0
1.32	0
1.321	0
1.322	0
1.323	0
1.324	0
1.325	0
1.326	0
1.327	0
1.328	0
1.329	0
1.33	0
1.331	0
1.332	0
1.333	0
1.334	0
1.335	0
1.336	0
1.337	0
1.338	0
1.339	0
1.34	0
1.341	0
1.342	0
1.343	0
1.344	0
1.345	0
1.346	0
1.347	0
1.348	0
1.349	0
1.35	0
1.351	0
1.352	0
1.353	0
1.354	0
1.355	0
1.356	0
1.357	0
1.358	0
1.359	0
1.36	0
1.361	0
1.362	0
1.363	0
1.364	0
1.365	0
1.366	0
1.367	0
1.368	0
1.369	0
1.37	0
1.371	0
1.372	0
1.373	0
1.374	0
1.375	0
1.376	0
1.377	0
1.378	0
1.379	0
1.38	0
1.381	0
1.382	0
1.383	0
1.384	0
1.385	0
1.386	0
1.387	0
1.388	0
1.389	0
1.39	0
1.391	0
1.392	0
1.393	0
1.394	0
1.395	0
1.396	0
1.397	0
1.398	0
1.399	0
1.4	0
1.401	0
1.402	0
1.403	0
1.404	0
1.405	0
1.406	0
1.407	0
1.408	0
1.409	0
1.41	0
1.411	0
1.412	0
1.413	0
1.414	0
1.415	0
1.416	0
1.417	0
1.418	0
1.419	0
1.42	0
1.421	0
1.422	0
1.423	0
1.424	0
1.425	0
1.426	0
1.427	0
1.428	0
1.429	0
1.43	0
1.431	0
1.432	0
1.433	0
1.434	0
1.435	0
1.436	0
1.437	0
1.438	0
1.439	0
1.44	0
1.441	0
1.442	0
1.443	0
1.444	0
1.445	0
1.446	0
1.447	0
1.448	0
1.449	0
1.45	0
1.451	0
1.452	0
1.453	0
1.454	0
1.455	0
1.456	0
1.457	0
1.458	0
1.459	0
1.46	0
1.461	0
1.462	0
1.463	0
1.464	0
1.465	0
1.466	0
1.467	0
1.468	0
1.469	0
1.47	0
1.471	0
1.472	0
1.473	0
1.474	0
1.475	0
1.476	0
1.477	0
1.478	0
1.479	0
1.48	0
1.481	0
1.482	0
1.483	0
1.484	0
1.485	0
1.486	0
1.487	0
1.488	0
1.489	0
1.49	0
1.491	0
1.492	0
1.493	0
1.494	0
1.495	0
1.496	0
1.497	0
1.498	0
1.499	0
1.5	0
1.501	0
1.502	0
1.503	0
1.504	0
1.505	0
1.506	0
1.507	0
1.508	0
1.509	0
1.51	0
1.511	0
1.512	0
1.513	0
1.514	0
1.515	0
1.516	0
1.517	0
1.518	0
1.519	0
1.52	0
1.521	0
1.522	0
1.523	0
1.524	0
1.525	0
1.526	0
1.527	0
1.528	0
1.529	0
1.53	0
1.531	0
1.532	0
1.533	0
1.534	0
1.535	0
1.536	0
1.537	0
1.538	0
1.539	0
1.54	0
1.541	0
1.542	0
1.543	0
1.544	0
1.545	0
1.546	0
1.547	0
1.548	0
1.549	0
1.55	0
1.551	0
1.552	0
1.553	0
1.554	0
1.555	0
1.556	0
1.557	0
1.558	0
1.559	0
1.56	0
1.561	0
1.562	0
1.563	0
1.564	0
1.565	0
1.566	0
1.567	0
1.568	0
1.569	0
1.57	0
1.571	0
1.572	0
1.573	0
1.574	0
1.575	0
1.576	0
1.577	0
1.578	0
1.579	0
1.58	0
1.581	0
1.582	0
1.583	0
1.584	0
1.585	0
1.586	0
1.587	0
1.588	0
1.589	0
1.59	0
1.591	0
1.592	0
1.593	0
1.594	0
1.595	0
1.596	0
1.597	0
1.598	0
1.599	0
1.6	0
1.601	0
1.602	0
1.603	0
1.604	0
1.605	0
1.606	0
1.607	0
1.608	0
1.609	0
1.61	0
1.611	0
1.612	0
1.613	0
1.614	0
1.615	0
1.616	0
1.617	0
1.618	0
1.619	0
1.62	0
1.621	0
1.622	0
1.623	0
1.624	0
1.625	0
1.626	0
1.627	0
1.628	0
1.629	0
1.63	0
1.631	0
1.632	0
1.633	0
1.634	0
1.635	0
1.636	0
1.637	0
1.638	0
1.639	0
1.64	0
1.641	0
1.642	0
1.643	0
1.644	0
1.645	0
1.646	0
1.647	0
1.648	0
1.649	0
1.65	0
1.651	0
1.652	0
1.653	0
1.654	0
1.655	0
1.656	0
1.657	0
1.658	0
1.659	0
1.66	0
1.661	0
1.662	0
1.663	0
1.664	0
1.665	0
1.666	0
1.667	0
1.668	0
1.669	0
1.67	0
1.671	0
1.672	0
1.673	0
1.674	0
1.675	0
1.676	0
1.677	0
1.678	0
1.679	0
1.68	0
1.681	0
1.682	0
1.683	0
1.684	0
1.685	0
1.686	0
1.687	0
1.688	0
1.689	0
1.69	0
1.691	0
1.692	0
1.693	0
1.694	0
1.695	0
1.696	0
1.697	0
1.698	0
1.699	0
1.7	0
1.701	0
1.702	0
1.703	0
1.704	0
1.705	0
1.706	0
1.707	0
1.708	0
1.709	0
1.71	0
1.711	0
1.712	0
1.713	0
1.714	0
1.715	0
1.716	0
1.717	0
1.718	0
1.719	0
1.72	0
1.721	0
1.722	0
1.723	0
1.724	0
1.725	0
1.726	0
1.727	0
1.728	0
1.729	0
1.73	0
1.731	0
1.732	0
1.733	0
1.734	0
1.735	0
1.736	0
1.737	0
1.738	0
1.739	0
1.74	0
1.741	0
1.742	0
1.743	0
1.744	0
1.745	0
1.746	0
1.747	0
1.748	0
1.749	0
1.75	0
1.751	0
1.752	0
1.753	0
1.754	0
1.755	0
1.756	0
1.757	0
1.758	0
1.759	0
1.76	0
1.761	0
1.762	0
1.763	0
1.764	0
1.765	0
1.766	0
1.767	0
1.768	0
1.769	0
1.77	0
1.771	0
1.772	0
1.773	0
1.774	0
1.775	0
1.776	0
1.777	0
1.778	0
1.779	0
1.78	0
1.781	0
1.782	0
1.783	0
1.784	0
1.785	0
1.786	0
1.787	0
1.788	0
1.789	0
1.79	0
1.791	0
1.792	0
1.793	0
1.794	0
1.795	0
1.796	0
1.797	0
1.798	0
1.799	0
1.8	0
1.801	0
1.802	0
1.803	0
1.804	0
1.805	0
1.806	0
1.807	0
1.808	0
1.809	0
1.81	0
1.811	0
1.812	0
1.813	0
1.814	0
1.815	0
1.816	0
1.817	0
1.818	0
1.819	0
1.82	0
1.821	0
1.822	0
1.823	0
1.824	0
1.825	0
1.826	0
1.827	0
1.828	0
1.829	0
1.83	0
1.831	0
1.832	0
1.833	0
1.834	0
1.835	0
1.836	0
1.837	0
1.838	0
1.839	0
1.84	0
1.841	0
1.842	0
1.843	0
1.844	0
1.845	0
1.846	0
1.847	0
1.848	0
1.849	0
1.85	0
1.851	0
1.852	0
1.853	0
1.854	0
1.855	0
1.856	0
1.857	0
1.858	0
1.859	0
1.86	0
1.861	0
1.862	0
1.863	0
1.864	0
1.865	0
1.866	0
1.867	0
1.868	0
1.869	0
1.87	0
1.871	0
1.872	0
1.873	0
1.874	0
1.875	0
1.876	0
1.877	0
1.878	0
1.879	0
1.88	0
1.881	0
1.882	0
1.883	0
1.884	0
1.885	0
1.886	0
1.887	0
1.888	0
1.889	0
1.89	0
1.891	0
1.892	0
1.893	0
1.894	0
1.895	0
1.896	0
1.897	0
1.898	0
1.899	0
1.9	0
1.901	0
1.902	0
1.903	0
1.904	0
1.905	0
1.906	0
1.907	0
1.908	0
1.909	0
1.91	0
1.911	0
1.912	0
1.913	0
1.914	0
1.915	0
1.916	0
1.917	0
1.918	0
1.919	0
1.92	0
1.921	0
1.922	0
1.923	0
1.924	0
1.925	0
1.926	0
1.927	0
1.928	0
1.929	0
1.93	0
1.931	0
1.932	0
1.933	0
1.934	0
1.935	0
1.936	0
1.937	0
1.938	0
1.939	0
1.94	0
1.941	0
1.942	0
1.943	0
1.944	0
1.945	0
1.946	0
1.947	0
1.948	0
1.949	0
1.95	0
1.951	0
1.952	0
1.953	0
1.954	0
1.955	0
1.956	0
1.957	0
1.958	0
1.959	0
1.96	0
1.961	0
1.962	0
1.963	0
1.964	0
1.965	0
1.966	0
1.967	0
1.968	0
1.969	0
1.97	0
1.971	0
1.972	0
1.973	0
1.974	0
1.975	0
1.976	0
1.977	0
1.978	0
1.979	0
1.98	0
1.981	0
1.982	0
1.983	0
1.984	0
1.985	0
1.986	0
1.987	0
1.988	0
1.989	0
1.99	0
1.991	0
1.992	0
1.993	0
1.994	0
1.995	0
1.996	0
1.997	0
1.998	0
1.999	0
2	0
2.001	0
2.002	0
2.003	0
2.004	0
2.005	0
2.006	0
2.007	0
2.008	0
2.009	0
2.01	0
2.011	0
2.012	0
2.013	0
2.014	0
2.015	0
2.016	0
2.017	0
2.018	0
2.019	0
2.02	0
2.021	0
2.022	0
2.023	0
2.024	0
2.025	0
2.026	0
2.027	0
2.028	0
2.029	0
2.03	0
2.031	0
2.032	0
2.033	0
2.034	0
2.035	0
2.036	0
2.037	0
2.038	0
2.039	0
2.04	0
2.041	0
2.042	0
2.043	0
2.044	0
2.045	0
2.046	0
2.047	0
2.048	0
2.049	0
2.05	0
2.051	0
2.052	0
2.053	0
2.054	0
2.055	0
2.056	0
2.057	0
2.058	0
2.059	0
2.06	0
2.061	0
2.062	0
2.063	0
2.064	0
2.065	0
2.066	0
2.067	0
2.068	0
2.069	0
2.07	0
2.071	0
2.072	0
2.073	0
2.074	0
2.075	0
2.076	0
2.077	0
2.078	0
2.079	0
2.08	0
2.081	0
2.082	0
2.083	0
2.084	0
2.085	0
2.086	0
2.087	0
2.088	0
2.089	0
2.09	0
2.091	0
2.092	0
2.093	0
2.094	0
2.095	0
2.096	0
2.097	0
2.098	0
2.099	0
2.1	0
2.101	0
2.102	0
2.103	0
2.104	0
2.105	0
2.106	0
2.107	0
2.108	0
2.109	0
2.11	0
2.111	0
2.112	0
2.113	0
2.114	0
2.115	0
2.116	0
2.117	0
2.118	0
2.119	0
2.12	0
2.121	0
2.122	0
2.123	0
2.124	0
2.125	0
2.126	0
2.127	0
2.128	0
2.129	0
2.13	0
2.131	0
2.132	0
2.133	0
2.134	0
2.135	0
2.136	0
2.137	0
2.138	0
2.139	0
2.14	0
2.141	0
2.142	0
2.143	0
2.144	0
2.145	0
2.146	0
2.147	0
2.148	0
2.149	0
2.15	0
2.151	0
2.152	0
2.153	0
2.154	0
2.155	0
2.156	0
2.157	0
2.158	0
2.159	0
2.16	0
2.161	0
2.162	0
2.163	0
2.164	0
2.165	0
2.166	0
2.167	0
2.168	0
2.169	0
2.17	0
2.171	0
2.172	0
2.173	0
2.174	0
2.175	0
2.176	0
2.177	0
2.178	0
2.179	0
2.18	0
2.181	0
2.182	0
2.183	0
2.184	0
2.185	0
2.186	0
2.187	0
2.188	0
2.189	0
2.19	0
2.191	0
2.192	0
2.193	0
2.194	0
2.195	0
2.196	0
2.197	0
2.198	0
2.199	0
2.2	0
2.201	0
2.202	0
2.203	0
2.204	0
2.205	0
2.206	0
2.207	0
2.208	0
2.209	0
2.21	0
2.211	0
2.212	0
2.213	0
2.214	0
2.215	0
2.216	0
2.217	0
2.218	0
2.219	0
2.22	0
2.221	0
2.222	0
2.223	0
2.224	0
2.225	0
2.226	0
2.227	0
2.228	0
2.229	0
2.23	0
2.231	0
2.232	0
2.233	0
2.234	0
2.235	0
2.236	0
2.237	0
2.238	0
2.239	0
2.24	0
2.241	0
2.242	0
2.243	0
2.244	0
2.245	0
2.246	0
2.247	0
2.248	0
2.249	0
2.25	0
2.251	0
2.252	0
