# Wavelength(μm) Transmission  
0.0299714	0.11858368824279036
0.0302711	0.11529998066810386
0.0305738	0.11206914284406232
0.0308795	0.10887647583527625
0.0311882	0.10575015271113306
0.0315001	0.10268127344830019
0.0318151	0.09968218444768938
0.0321332	0.09673641994133983
0.0324545	0.09383675418939219
0.032779	0.09099995015859702
0.0331067	0.08819517994137017
0.0334378	0.08545534564039205
0.0337721	0.08279031808302137
0.0341098	0.08035629728818794
0.0344509	0.0783114640862835
0.0347954	0.07694700282255922
0.0351433	0.07560583906676156
0.0354947	0.07427084475033383
0.0358496	0.07295485714014141
0.036208	0.07037188975865151
0.0365701	0.067739265572588
0.0369358	0.06531355407841082
0.0373051	0.0630746272458373
0.0376781	0.06100845714948476
0.0380548	0.05909972245694154
0.0384354	0.05733659920610169
0.0388197	0.05570574524727918
0.0392078	0.0541983308344411
0.0395999	0.05280389735356426
0.0399958	0.05151424164873457
0.0403958	0.0503228804051088
0.0407997	0.0488213283235022
0.0412076	0.0460392360739169
0.0416197	0.042164639316307914
0.0420358	0.0382010488576491
0.0424561	0.03442229052763811
0.0428807	0.03091499064226598
0.0433094	0.0276864651407637
0.0437425	0.024699353494707785
0.0441799	0.021836360181748397
0.0446216	0.019675381536840047
0.0450678	0.019165909039242444
0.0455184	0.020232239439724686
0.0459736	0.021776088104427126
0.0464333	0.02179224366283559
0.0468975	0.020074356354369577
0.0473665	0.018103046623217035
0.0478401	0.016172035277318152
0.0483185	0.014363861529100295
0.0488016	0.012682532370742246
0.0492896	0.011330555853842832
0.0497824	0.01035684559483683
0.0502802	0.009555328657637797
0.0507829	0.008848997874244736
0.0512907	0.008234725326474642
0.0518036	0.008258027140807096
0.0523216	0.008490110202385595
0.0528447	0.00794056084990776
0.0533731	0.007032474731202872
0.0539068	0.006301895918392338
0.0544458	0.0058962935492978055
0.0549902	0.005164854493835922
0.0555401	0.004068568494730196
0.0560954	0.003406459460808812
0.0566563	0.0031550720384974657
0.0572228	0.0030047651678609087
0.057795	0.0029070640404106635
0.0583729	0.0028492723464079647
0.0589566	0.002797047991672094
0.0595461	0.0026669871189216377
0.0601415	0.0025095089915732087
0.0607428	0.0024105770013049693
0.0613502	0.0023066204570422995
0.0619637	0.0021497552461930496
0.0625832	0.0019725475201424645
0.063209	0.0018325142023801423
0.063841	0.0017322769389402704
0.0644794	0.0016447833773888599
0.0651241	0.001567116491230073
0.0657753	0.0014996606484819573
0.066433	0.0013911020136708762
0.0670973	0.0012747824477053887
0.0677682	0.0012562687084847876
0.0684458	0.0012632850672543812
0.0691302	0.0012315268641922873
0.0698214	0.0012006578820530876
0.0705196	0.0011720004604812667
0.0712247	0.0011453315897920376
0.0719369	0.0011193756034470332
0.0726562	0.001137027753897791
0.0733827	0.00121612352776866
0.0741164	0.0013259109504640642
0.0748575	0.001464162723724735
0.075606	0.0016309420560491812
0.076362	0.0018228194596038702
0.0771255	0.00204158907999571
0.0778967	0.002289169225096731
0.0786756	0.0025672872414058824
0.0794623	0.0028770286945311386
0.0802568	0.003218262815860151
0.0810593	0.003587423920318731
0.0818698	0.0036823270348260878
0.0826885	0.003456807446077864
0.0835153	0.0033015026422038244
0.0843503	0.0033345611065648574
0.0851938	0.0034579363494656127
0.0860456	0.003584360968730312
0.086906	0.003597590215170513
0.087775	0.0034614755162365794
0.0886526	0.003307588743966953
0.0895391	0.003337279264460568
0.0904344	0.003567842241389327
0.0913386	0.0036105485058914805
0.0922519	0.003760453593096976
0.0931744	0.004364292069650743
0.094106	0.005216230208569026
0.095047	0.006632542022469953
0.0959974	0.007027365257858368
0.0969573	0.006503205684760843
0.0979267	0.006471437848881962
0.0989059	0.006376166619595393
0.0998949	0.006234940982240094
0.100894	0.006162260550994967
0.101903	0.0061914855333265306
0.102921	0.006323056892988872
0.103951	0.0066298300863655586
0.10499	0.006902034813187036
0.10604	0.00765896764904325
0.1071	0.009469095155446399
0.108171	0.012239926735501377
0.109253	0.016790760201665388
0.110345	0.021444321678355208
0.111448	0.024798571566788538
0.112563	0.02854208382231067
0.113688	0.03285335095895048
0.114825	0.04011928108989422
0.115973	0.036799167603533675
0.117133	0.02993488044668406
0.118304	0.026496716326108102
0.119487	0.023554773846164084
0.120682	0.026344499426066446
0.121888	0.0352836828791823
0.123107	0.05781063806392702
0.124338	0.0934059080723901
0.125581	0.1324013904005318
0.126837	0.18306990441768128
0.128105	0.25081132192244177
0.129386	0.34054396172253043
0.13068	0.45258978014476414
0.131987	0.5102406525255736
0.133306	0.5732799910902402
0.134639	0.6419804321066813
0.135986	0.7082302101019905
0.137345	0.7359652216237068
0.138719	0.7639772815295427
0.140106	0.791489290292521
0.141507	0.8164093231446939
0.142922	0.8385142711679289
0.144351	0.840760018311396
0.145794	0.8429773357817929
0.147252	0.8495935462251863
0.148724	0.8728688042240821
0.150211	0.8960898256013485
0.151713	0.9135197928279303
0.15323	0.9158469263341144
0.154762	0.9180916920924682
0.15631	0.9198458286945127
0.157873	0.9215636438725834
0.159451	0.9232496790333773
0.161046	0.9256167845541351
0.162656	0.9282468881997684
0.164282	0.9324554601410461
0.165925	0.937409098026222
0.167584	0.9422529643781534
0.16926	0.9469880314211827
0.170952	0.9516185841375082
0.172662	0.9577019993760211
0.174388	0.9644073749753368
0.176132	0.9660032052005029
0.177893	0.9673399007897999
0.179672	0.968647689891892
0.181468	0.9699230416175053
0.183283	0.9711705133687848
0.185116	0.9723903319180601
0.186966	0.9735790938292567
0.188836	0.9747377150386607
0.190724	0.9758267932424187
0.192631	0.9763984518204325
0.194557	0.976950850869426
0.196503	0.9774914878722114
0.198468	0.9780169574255982
0.200452	0.978527540297545
0.202456	0.9790236177185739
0.204481	0.9795089263633701
0.206525	0.9799800950455583
0.20859	0.9804375829581407
0.210676	0.9808849193918955
0.212783	0.9813222626969359
0.21491	0.9817464722420002
0.217059	0.9821611526269753
0.21923	0.9825632984608781
0.221422	0.9829561959269105
0.223636	0.983340073821766
0.225872	0.983712014359923
0.22813	0.9840783229542182
0.230411	0.98443311171558
0.232715	0.9847795836192006
0.235042	0.98511787645393
0.237392	0.9854452062949711
0.239766	0.9857676391933387
0.242164	0.9860823561122455
0.244585	0.9863865937405044
0.247031	0.9866862970923546
0.249501	0.9869786723927856
0.251995	0.987263847723978
0.254515	0.9875393171540333
0.25706	0.9878106380521213
0.25963	0.9880751746963683
0.262226	0.9883357441739861
0.264848	0.9885871318272167
0.267497	0.9888347736308166
0.270171	0.9890734716417179
0.272873	0.989308638186462
0.275601	0.9895402290980627
0.278357	0.989763352384001
0.28114	0.9899831068144168
0.283951	0.9901971083038067
0.286791	0.9904054943280939
0.289658	0.9906107074003536
0.292555	0.990810493748403
0.29548	0.991004889489642
0.298434	0.9911963630676197
0.301419	0.991382686897326
0.304432	0.9915638709418504
0.307476	0.9917423650572598
0.310551	0.9919159466886217
0.313656	0.9920869079181858
0.316792	0.9922530969303047
0.31996	0.9924168105366121
0.323159	0.9925758881537189
0.326391	0.9927304637188795
0.329654	0.9928826983542206
0.33295	0.9930305608406463
0.33628	0.9931762335401584
0.339642	0.9933196975856434
0.343038	0.9934589774235442
0.346468	0.9935941539395546
0.349933	0.9937273235573845
0.353432	0.9938584881459114
0.356966	0.9939857261763051
0.360535	0.9941091150619313
0.36414	0.9942306686470447
0.367781	0.994350404979562
0.371458	0.9944683424613238
0.375173	0.9945826630513828
0.378924	0.9946934099693027
0.382713	0.9948025125365378
0.38654	0.9949099867504545
0.390405	0.9950140553918658
0.394308	0.9951165637638891
0.398251	0.9952175521926
0.402233	0.9953152821484643
0.406255	0.995411556173809
0.410317	0.9955046814363904
0.41442	0.9955964241567599
0.418564	0.995686797904979
0.422749	0.9957758165189904
0.426976	0.995861862423904
0.431245	0.995946622569436
0.435558	0.9960285190719412
0.439913	0.9961091868783986
0.444311	0.9961886477028513
0.448754	0.9962669306990595
0.453241	0.9963424920890189
0.457773	0.9964169292471047
0.46235	0.996488736713638
0.466973	0.9965609815901328
0.471643	0.9966306631868853
0.476359	0.9966993013690387
0.481122	0.9967654558405553
0.485933	0.996830630187232
0.490792	0.9968948340460795
0.495699	0.9969580772423163
0.500655	0.9970203757134465
0.505662	0.9970803629805328
0.510718	0.9971394515107761
0.515824	0.9971962958304693
0.520982	0.9972536498960554
0.526191	0.9973088092283057
0.531453	0.9973631527766721
0.536767	0.9974166835848459
0.542134	0.9974681200027455
0.547555	0.9975187949791735
0.55303	0.9975687160232787
0.55856	0.9976178950484309
0.564145	0.9976663394551297
0.569786	0.9977128285577047
0.575483	0.9977586261672098
0.581237	0.9978037431221379
0.587049	0.9978481899257687
0.592919	0.9978907888463965
0.598848	0.9979327578070952
0.604835	0.9979752608086637
0.610883	0.9980148308390419
0.616991	0.998054953989968
0.623161	0.9980944815065377
0.629392	0.9981323002361316
0.635685	0.9981695572659901
0.642041	0.9982062610897523
0.648461	0.9982424199645594
0.654945	0.9982769666798089
0.661494	0.9983120651057147
0.668108	0.9983455857533245
0.674789	0.9983786111911062
0.681536	0.9984111438969803
0.688351	0.9984431935056141
0.695234	0.9984737541470687
0.702185	0.9985038613043697
0.709206	0.998534514575603
0.716298	0.9985637289409657
0.72346	0.9985925074125299
0.730694	0.9986198965452672
0.738	0.998647833600142
0.745379	0.9986744105008538
0.752833	0.9987015299657548
0.76036	0.9987273160814785
0.767963	0.9987527206908194
0.775642	0.9987768413746057
0.783398	0.9988015047468655
0.791231	0.9988249110037383
0.799142	0.9988488508690317
0.807133	0.9988715627779694
0.815204	0.9988939383735301
0.823355	0.9989159810162198
0.831588	0.9989376966811888
0.839903	0.9989590886164956
0.848301	0.9989793326190288
0.856783	0.999000098724856
0.86535	0.9990197418687181
0.874003	0.9990390947792755
0.882742	0.9990581603296652
0.891569	0.9990769435169538
0.900483	0.9990954461286597
0.909487	0.9991129009567693
0.918581	0.9991308644870359
0.927766	0.9991478017633885
0.937043	0.9991652396190439
0.946413	0.9991816732369807
0.955876	0.9991978629225686
0.965434	0.9992138127942207
0.975087	0.9992295252384182
0.984837	0.9992442902068792
0.994684	0.9992595451140528
1.00463	0.9992745726397094
1.01468	0.9992886855261979
1.02482	0.9993025830143794
1.03507	0.9993162810132107
1.04542	0.9993297746551282
1.05587	0.9993430661130095
1.06643	0.9993561636241628
1.07709	0.9993690630218917
1.08786	0.9993817722515554
1.09874	0.999393652997813
1.10973	0.9994059935833624
1.12082	0.9994175166980378
1.13203	0.9994288746748259
1.14335	0.9994406790394302
1.15478	0.9994516951886809
1.16633	0.9994625508049781
1.17799	0.9994732428206642
1.18977	0.9994831862486789
1.20167	0.9994935707440428
1.21368	0.9995037966535342
1.22582	0.9995133000143545
1.23807	0.999523227605732
1.25045	0.999532446797267
1.26296	0.9995420894393772
1.27558	0.9995510302467797
1.28834	0.9995598437776276
1.30122	0.9995685243000682
1.31423	0.9995770765631136
1.32737	0.9995855018242519
1.34065	0.9995938043950594
1.35405	0.9996014599259037
1.36759	0.9996095198648854
1.38127	0.9996174606038332
1.39508	0.9996247763339067
1.40903	0.9996319852602873
1.42311	0.9996395801736997
1.43734	0.9996465737359539
1.45172	0.9996534660307885
1.46623	0.9996602532883146
1.48089	0.9996669413052673
1.4957	0.9996735309869338
1.51066	0.9996800232618673