# Wavelength(μm) Transmission  
0.0294938	0.014658102224767272
0.0300495	0.015501239634521562
0.0306157	0.01568520899945492
0.0311925	0.01427824052858587
0.0317802	0.012525196520544759
0.032379	0.010831734584248708
0.032989	0.00943170816397935
0.0336106	0.008433155610788199
0.0342439	0.00743759969879644
0.0348891	0.006728081240167402
0.0355464	0.006005474279041832
0.0362162	0.005492435615483479
0.0368985	0.005048582555178734
0.0375937	0.004663403721966094
0.0383021	0.004404075822560178
0.0390237	0.004104894338283446
0.039759	0.003908104415643776
0.0405081	0.0037964092183970922
0.0412713	0.003639652054686301
0.0420489	0.003501490896167214
0.0428412	0.003432861468746069
0.0436483	0.0033745056381110335
0.0444707	0.003325732319264578
0.0453086	0.0031906265966896827
0.0461623	0.0030277021637584124
0.0470321	0.0029254773577634383
0.0479182	0.002875577733709377
0.048821	0.0028729045778189102
0.0497409	0.0026540881094923026
0.0506781	0.0023378652411764084
0.0516329	0.0020466208100333905
0.0526057	0.0017590991913191995
0.0535969	0.0015049347374912162
0.0546067	0.0014660312838223146
0.0556356	0.0015211026952646057
0.0566838	0.0014210878951184116
0.0577518	0.0013339572284450057
0.05884	0.0012437725175599968
0.0599486	0.001152438471244689
0.0610781	0.0011969356110999212
0.0622289	0.0012712100335241653
0.0634014	0.001294637455009496
0.0645959	0.0012413682966511787
0.065813	0.0011948916222827353
0.067053	0.001120500420458703
0.0683163	0.001119275418778673
0.0696035	0.0010994542871818258
0.0709149	0.0010730813485253037
0.0722511	0.0010604668816355657
0.0736124	0.0009427749719992628
0.0749993	0.0008820939849307612
0.0764124	0.0009207636363225014
0.0778521	0.0009701776878797964
0.0793189	0.0010313322603113938
0.0808134	0.0011239175459402063
0.082336	0.0010078509256682628
0.0838874	0.0008741546355094079
0.0854679	0.0008258842088829769
0.0870782	0.0008396554187634824
0.0887189	0.000764151589989634
0.0903905	0.0009603194256783416
0.0920935	0.0005414546686049622
0.0938287	0.0006222562088485591
0.0955966	0.0009425076818937973
0.0973977	0.0008155649987667689
0.0992328	0.000930177547302179
0.101102	0.000990837171993935
0.103007	0.0009894637694014999
0.104948	0.0013603307027477299
0.106926	0.0018527960272082908
0.10894	0.0024602342758646726
0.110993	0.003072763164477555
0.113084	0.003981104247338748
0.115215	0.00515948623408441
0.117385	0.0061111652258491475
0.119597	0.007401789242529893
0.12185	0.009996077052437524
0.124146	0.01024824937749549
0.126485	0.011702150538832917
0.128869	0.013255546104139482
0.131297	0.015787487306837378
0.13377	0.01845203076314404
0.136291	0.02187401622533444
0.138859	0.02549464788685446
0.141475	0.028572711628027048
0.144141	0.031215822059822738
0.146856	0.03294580185166971
0.149623	0.03500982211507114
0.152442	0.03631334198183466
0.155315	0.038004871826921534
0.158241	0.04108567252000756
0.161222	0.04263727907068397
0.16426	0.041759984919741394
0.167355	0.043018030605897636
0.170508	0.043524776612401665
0.173721	0.04187261096708855
0.176994	0.040715615831243314
0.180329	0.03912572394775022
0.183726	0.04207712370121304
0.187188	0.03870167581410744
0.190715	0.036146674572394705
0.194308	0.037918920201928955
0.197969	0.03748064274651299
0.201699	0.038362959688018845
0.205499	0.04096170376295745
0.209371	0.04509133667819972
0.213316	0.05076203205726951
0.217335	0.05871415756763753
0.22143	0.06984954738642157
0.225602	0.08659965035527215
0.229853	0.11296417468395425
0.234183	0.14766198958600263
0.238596	0.19197409799969178
0.243091	0.24186929863790965
0.247671	0.29620240149412136
0.252338	0.35995057899464916
0.257092	0.4286687701081936
0.261936	0.49703098736644663
0.266871	0.5594807590825623
0.271899	0.6126361658761599
0.277022	0.6552247169579837
0.282242	0.6887534541393141
0.28756	0.7159575183061165
0.292978	0.7404420529262743
0.298498	0.7625070598582175
0.304122	0.7823904895420326
0.309852	0.811376508205332
0.31569	0.8266108455665794
0.321638	0.8388006478798952
0.327698	0.8578245261537036
0.333872	0.8681995844590517
0.340163	0.874592446924084
0.346572	0.8843313744351542
0.353102	0.8932704683034548
0.359755	0.901342880218876
0.366533	0.9088886642434375
0.373439	0.9161904919502384
0.380475	0.9230040349254734
0.387643	0.9294703065268398
0.394947	0.935188661154128
0.402388	0.9404766379665954
0.40997	0.9453548841330398
0.417694	0.9500282804361982
0.425564	0.9542270172548897
0.433582	0.9581045958712401
0.441752	0.9617806886522339
0.450075	0.9651196618383697
0.458555	0.9681860361858505
0.467195	0.970960670934385
0.475997	0.9735473871392056
0.484965	0.9758832328114293
0.494103	0.978104808647408
0.503412	0.980012050346911
0.512897	0.9817526320290609
0.522561	0.983339543136007
0.532407	0.984846815752772
0.542438	0.9860216312248099
0.552658	0.987135683056349
0.563071	0.988165395796067
0.57368	0.989056769941306
0.584489	0.9898443950387809
0.595501	0.9906648122467361
0.606721	0.9912826997954711
0.618153	0.9917808366694227
0.629799	0.9923455903544062
0.641666	0.992841053807916
0.653756	0.9932997784800596
0.666073	0.9937640447191106
0.678623	0.9940116803054837
0.691409	0.9945368275287401
0.704436	0.9949648959181719
0.717708	0.9954475234570648
0.731231	0.9956693612623682
0.745008	0.9960083490624257
0.759045	0.9962445997332349
0.773347	0.9964709562807085
0.787917	0.996686053034374
0.802763	0.9968919682985283
0.817888	0.9970890011052438
0.833298	0.9972726713984919
0.848998	0.9974427491950459
0.864995	0.997605962883242
0.881292	0.9977617730285531
0.897897	0.9979111833868288
0.914814	0.9980536718788612
0.932051	0.9981901993883002
0.949612	0.9983202580566395
0.967504	0.9984454538508413
0.985733	0.9985645838948743
1.00431	0.9986791962951356
1.02323	0.9987751111767279
1.04251	0.9988564565932426
1.06215	0.9989333358234711
1.08216	0.9990071535120938
1.10255	0.9990780100384591
1.12332	0.9991454020179117
1.14449	0.9992094643334036
1.16605	0.999270876522921
1.18802	0.9993291731714019
1.21041	0.999385019339535
1.23321	0.999438486663578
1.25645	0.9994838364029767
1.28012	0.999525619467444
1.30424	0.9995650159423828
1.32881	0.9995956024163164
1.35385	0.9996114401818053
1.37936	0.9996268301444872
1.40535	0.9996413100446904
1.43182	0.9996553798452719
1.4588	0.999669054780722
1.48629	0.9996818943069598
1.51429	0.9996948103015069